# [mlight=1.0 eV] Tf delta
2.999999999999999889e-01 1.116354285521659939e+00
3.526315789473684070e-01 1.502195420257082414e+00
4.052631578947368252e-01 1.963328511864427472e+00
4.578947368421052433e-01 2.499238676223041189e+00
5.105263157894737169e-01 3.109036082810657575e+00
5.631578947368420796e-01 3.791505819125001953e+00
6.157894736842104422e-01 4.545189214547741940e+00
6.684210526315789158e-01 5.368472267847967494e+00
7.210526315789473895e-01 6.259664864261825556e+00
7.736842105263157521e-01 7.217064234713324922e+00
8.263157894736841147e-01 8.239001872515874680e+00
8.789473684210526994e-01 9.323875767945228432e+00
9.315789473684210620e-01 1.047017070383311044e+01
9.842105263157894246e-01 1.167646937680287067e+01
1.036842105263157787e+00 1.294145676983657900e+01
1.089473684210526372e+00 1.426391975654637889e+01
1.142105263157894735e+00 1.564274348329116648e+01
1.194736842105263097e+00 1.707690569861816243e+01
1.247368421052631460e+00 1.856546989223057409e+01
1.300000000000000044e+00 2.010757786414264459e+01
